# step energy mass x-momentum y-momentum z-momentum 
1 3.4830691e+10 1.2088459e+05 3.7410987e+08 4.5582426e+07 0.0000000e+00
2 4.6661203e+10 1.4626210e+05 3.2019183e+08 3.4386504e+07 0.0000000e+00
3 5.1235874e+10 1.5519775e+05 2.6934300e+08 2.7759892e+07 0.0000000e+00
4 4.8756067e+10 1.5178749e+05 2.2434210e+08 2.6810980e+07 0.0000000e+00
5 4.5896630e+10 1.4557548e+05 1.8577406e+08 2.7141177e+07 0.0000000e+00
6 3.9507407e+10 1.2734805e+05 1.5314216e+08 2.6508924e+07 0.0000000e+00
7 3.3737314e+10 1.0954486e+05 1.2609302e+08 2.4615204e+07 0.0000000e+00
8 2.7797077e+10 9.1726561e+04 1.0419839e+08 2.1831400e+07 0.0000000e+00
9 2.2497284e+10 7.5281368e+04 8.6674701e+07 1.9223999e+07 0.0000000e+00
10 1.8032669e+10 6.2901119e+04 7.2727857e+07 1.5948228e+07 0.0000000e+00
11 1.4549866e+10 5.2253091e+04 6.0171169e+07 1.2850368e+07 0.0000000e+00
12 1.1736291e+10 4.3441995e+04 5.2770985e+07 1.0797660e+07 0.0000000e+00
13 9.5945553e+09 3.5447479e+04 4.6204021e+07 8.7268163e+06 0.0000000e+00
14 8.0280653e+09 2.9223756e+04 4.0663530e+07 7.1415670e+06 0.0000000e+00
15 6.8459903e+09 2.4535506e+04 3.6053228e+07 5.9459052e+06 0.0000000e+00
16 5.9145156e+09 2.0988260e+04 3.2225195e+07 5.0498245e+06 0.0000000e+00
17 5.1803472e+09 1.8263730e+04 2.9025433e+07 4.3898297e+06 0.0000000e+00
18 4.5875910e+09 1.6137159e+04 2.6312617e+07 3.8911817e+06 0.0000000e+00
19 4.0930746e+09 1.4384699e+04 2.3992019e+07 3.4957529e+06 0.0000000e+00
20 3.6765244e+09 1.2948127e+04 2.1981057e+07 3.1554234e+06 0.0000000e+00
21 3.3295648e+09 1.1717915e+04 2.0224548e+07 2.8615397e+06 0.0000000e+00
22 3.0399266e+09 1.0629699e+04 1.8674598e+07 2.6018232e+06 0.0000000e+00
23 2.7804288e+09 9.6562177e+03 1.7299927e+07 2.3686996e+06 0.0000000e+00
24 2.5466805e+09 8.7794940e+03 1.6071585e+07 2.1582805e+06 0.0000000e+00
25 2.3318568e+09 7.9845529e+03 1.4969386e+07 1.9676887e+06 0.0000000e+00
26 2.1344273e+09 7.2650078e+03 1.3975185e+07 1.7937679e+06 0.0000000e+00
27 1.9535984e+09 6.6137844e+03 1.3074726e+07 1.6352866e+06 0.0000000e+00
28 1.7882566e+09 6.0249870e+03 1.2256655e+07 1.4914610e+06 0.0000000e+00
29 1.6378577e+09 5.4985335e+03 1.1510461e+07 1.3606813e+06 0.0000000e+00
30 1.5016465e+09 5.0256183e+03 1.0828153e+07 1.2418228e+06 0.0000000e+00
31 1.3777919e+09 4.6018867e+03 1.0202547e+07 1.1339121e+06 0.0000000e+00
32 1.2657714e+09 4.2202458e+03 9.6274723e+06 1.0360197e+06 0.0000000e+00
33 1.1644507e+09 3.8754114e+03 9.0978944e+06 9.4762653e+05 0.0000000e+00
34 1.0731620e+09 3.5670299e+03 8.6091647e+06 8.6804664e+05 0.0000000e+00
35 9.9131409e+08 3.2919381e+03 8.1573292e+06 7.9640856e+05 0.0000000e+00
36 9.1834991e+08 3.0473410e+03 7.7389474e+06 7.3212002e+05 0.0000000e+00
37 8.5404036e+08 2.8297187e+03 7.3508814e+06 6.7448128e+05 0.0000000e+00
38 7.9781583e+08 2.6379626e+03 6.9904455e+06 6.2307173e+05 0.0000000e+00
39 7.4841055e+08 2.4694914e+03 6.6553310e+06 5.7722036e+05 0.0000000e+00
40 7.0553058e+08 2.3236270e+03 6.3434394e+06 5.3645835e+05 0.0000000e+00
41 6.6832264e+08 2.1975610e+03 6.0528121e+06 5.0044958e+05 0.0000000e+00
42 6.3622829e+08 2.0894889e+03 5.7817720e+06 4.6842108e+05 0.0000000e+00
43 6.0892402e+08 1.9978864e+03 5.5286245e+06 4.3998140e+05 0.0000000e+00
44 5.8603080e+08 1.9214371e+03 5.2918017e+06 4.1455296e+05 0.0000000e+00
45 5.6690475e+08 1.8583568e+03 5.0699694e+06 3.9208191e+05 0.0000000e+00
46 5.5124326e+08 1.8075686e+03 4.8618889e+06 3.7214836e+05 0.0000000e+00
47 5.3861306e+08 1.7676742e+03 4.6664396e+06 3.5464399e+05 0.0000000e+00
48 5.2861921e+08 1.7368925e+03 4.4824416e+06 3.3941469e+05 0.0000000e+00
49 5.2065244e+08 1.7134912e+03 4.3088354e+06 3.2587100e+05 0.0000000e+00
50 5.1466199e+08 1.6978015e+03 4.1450389e+06 3.1414567e+05 0.0000000e+00
51 5.1072079e+08 1.6892882e+03 3.9902622e+06 3.0442726e+05 0.0000000e+00
52 5.0830959e+08 1.6860944e+03 3.8436031e+06 2.9636783e+05 0.0000000e+00
53 5.0789149e+08 1.6894198e+03 3.7045196e+06 2.9010579e+05 0.0000000e+00
54 5.0935581e+08 1.6989552e+03 3.5723871e+06 2.8602716e+05 0.0000000e+00
55 5.1301413e+08 1.7155513e+03 3.4468809e+06 2.8444802e+05 0.0000000e+00
56 5.1928033e+08 1.7405340e+03 3.3277616e+06 2.8559988e+05 0.0000000e+00
57 5.2902861e+08 1.7760579e+03 3.2149989e+06 2.8953330e+05 0.0000000e+00
58 5.4331902e+08 1.8267917e+03 3.1085364e+06 2.9648860e+05 0.0000000e+00
59 5.6316024e+08 1.8967906e+03 3.0083944e+06 3.0721519e+05 0.0000000e+00
60 5.9125844e+08 1.9961900e+03 2.9147134e+06 3.2147356e+05 0.0000000e+00
61 6.2983049e+08 2.1331636e+03 2.8275685e+06 3.3856840e+05 0.0000000e+00
62 6.8242944e+08 2.3201660e+03 2.7471772e+06 3.5811565e+05 0.0000000e+00
63 7.5269327e+08 2.5684695e+03 2.6734032e+06 3.8005624e+05 0.0000000e+00
64 8.4165732e+08 2.8800675e+03 2.6060337e+06 4.0265226e+05 0.0000000e+00
65 9.4941757e+08 3.2576999e+03 2.5447956e+06 4.2502410e+05 0.0000000e+00
66 1.0764706e+09 3.7029991e+03 2.4894185e+06 4.4554596e+05 0.0000000e+00
67 1.2209272e+09 4.2079883e+03 2.4395540e+06 4.6265443e+05 0.0000000e+00
68 1.3799765e+09 4.7622669e+03 2.3948976e+06 4.7461777e+05 0.0000000e+00
69 1.5482624e+09 5.3466785e+03 2.3547983e+06 4.7956437e+05 0.0000000e+00
70 1.7192653e+09 5.9398842e+03 2.3186087e+06 4.7667437e+05 0.0000000e+00
71 1.8864113e+09 6.5192882e+03 2.2860089e+06 4.6526501e+05 0.0000000e+00
72 2.0422579e+09 7.0594538e+03 2.2558919e+06 4.4465478e+05 0.0000000e+00
73 2.1798043e+09 7.5363801e+03 2.2269277e+06 4.1644580e+05 0.0000000e+00
74 2.2929499e+09 7.9289918e+03 2.1974606e+06 3.8352548e+05 0.0000000e+00
75 2.3766512e+09 8.2205009e+03 2.1648456e+06 3.5040169e+05 0.0000000e+00
76 2.4273772e+09 8.3989953e+03 2.1275352e+06 3.4130842e+05 0.0000000e+00
77 2.4435793e+09 8.4592017e+03 2.0851562e+06 3.5709291e+05 0.0000000e+00
78 2.4255596e+09 8.4021638e+03 2.0383559e+06 3.7758486e+05 0.0000000e+00
79 2.3759563e+09 8.2368361e+03 1.9882230e+06 3.9678842e+05 0.0000000e+00
80 2.2988070e+09 7.9767673e+03 1.9352354e+06 4.1184297e+05 0.0000000e+00
81 2.1973178e+09 7.6324124e+03 1.8797230e+06 4.2223657e+05 0.0000000e+00
82 2.0760160e+09 7.2189652e+03 1.8219647e+06 4.2725713e+05 0.0000000e+00
83 1.9396158e+09 6.7520318e+03 1.7621127e+06 4.2766300e+05 0.0000000e+00
84 1.7929592e+09 6.2484192e+03 1.7003757e+06 4.2506760e+05 0.0000000e+00
85 1.6416013e+09 5.7266130e+03 1.6375644e+06 4.2100415e+05 0.0000000e+00
86 1.5057891e+09 5.2548464e+03 1.5746460e+06 4.1733236e+05 0.0000000e+00
87 1.3907414e+09 4.8523842e+03 1.5130944e+06 4.0864349e+05 0.0000000e+00
88 1.2845359e+09 4.4798611e+03 1.4532442e+06 3.9591894e+05 0.0000000e+00
89 1.1883590e+09 4.1424960e+03 1.3952042e+06 3.8064438e+05 0.0000000e+00
90 1.1002915e+09 3.8334782e+03 1.3398065e+06 3.6396286e+05 0.0000000e+00
91 1.0175253e+09 3.5432016e+03 1.2874395e+06 3.4737712e+05 0.0000000e+00
92 9.4117061e+08 3.2749150e+03 1.2384259e+06 3.3159024e+05 0.0000000e+00
93 8.7545031e+08 3.0435856e+03 1.1935392e+06 3.1712850e+05 0.0000000e+00
94 8.2829079e+08 2.8783315e+03 1.1540165e+06 3.0392221e+05 0.0000000e+00
95 8.0013875e+08 2.7809183e+03 1.1198419e+06 2.9183392e+05 0.0000000e+00
96 7.9222746e+08 2.7543225e+03 1.0907917e+06 2.8076310e+05 0.0000000e+00
97 8.0266027e+08 2.7921210e+03 1.0671500e+06 2.7032247e+05 0.0000000e+00
98 8.3341593e+08 2.9005130e+03 1.0505349e+06 2.6025820e+05 0.0000000e+00
99 8.8850370e+08 3.0934525e+03 1.0392502e+06 2.5032402e+05 0.0000000e+00
100 9.6526103e+08 3.3611172e+03 1.0307178e+06 2.3990082e+05 0.0000000e+00
101 1.0434524e+09 3.6330748e+03 1.0237769e+06 2.2936949e+05 0.0000000e+00
102 1.1163520e+09 3.8854301e+03 1.0173883e+06 2.1952856e+05 0.0000000e+00
103 1.1839651e+09 4.1188612e+03 1.0108308e+06 2.0979826e+05 0.0000000e+00
104 1.2440336e+09 4.3255453e+03 1.0035246e+06 1.9995420e+05 0.0000000e+00
105 1.2941284e+09 4.4982887e+03 9.9490952e+05 1.9068877e+05 0.0000000e+00
106 1.3332474e+09 4.6335400e+03 9.8462567e+05 1.8333189e+05 0.0000000e+00
107 1.3595874e+09 4.7251716e+03 9.7257451e+05 1.7987285e+05 0.0000000e+00
108 1.3721829e+09 4.7702751e+03 9.5875115e+05 1.8052790e+05 0.0000000e+00
109 1.3716624e+09 4.7698287e+03 9.4326693e+05 1.8678837e+05 0.0000000e+00
110 1.3587472e+09 4.7268224e+03 9.2653430e+05 1.9528621e+05 0.0000000e+00
111 1.3351226e+09 4.6472392e+03 9.0905474e+05 2.0370806e+05 0.0000000e+00
112 1.3018129e+09 4.5343470e+03 8.9153842e+05 2.1047930e+05 0.0000000e+00
113 1.2601565e+09 4.3928060e+03 8.7443289e+05 2.1543919e+05 0.0000000e+00
114 1.2114493e+09 4.2269896e+03 8.5744908e+05 2.1893183e+05 0.0000000e+00
115 1.1573432e+09 4.0425067e+03 8.4044655e+05 2.2137990e+05 0.0000000e+00
116 1.0990677e+09 3.8434205e+03 8.2373964e+05 2.2300385e+05 0.0000000e+00
117 1.0387435e+09 3.6368177e+03 8.0746090e+05 2.2393959e+05 0.0000000e+00
118 9.8410179e+08 3.4486556e+03 7.9159093e+05 2.2425806e+05 0.0000000e+00
119 9.3949303e+08 3.2945104e+03 7.7650963e+05 2.2417996e+05 0.0000000e+00
120 9.1647615e+08 3.2146420e+03 7.6325274e+05 2.2409279e+05 0.0000000e+00
121 9.2328659e+08 3.2392763e+03 7.5150101e+05 2.2359805e+05 0.0000000e+00
122 9.4662557e+08 3.3204291e+03 7.4133869e+05 2.2267836e+05 0.0000000e+00
123 9.7615699e+08 3.4222317e+03 7.3264263e+05 2.2126232e+05 0.0000000e+00
124 1.0084507e+09 3.5335567e+03 7.2501830e+05 2.1966806e+05 0.0000000e+00
125 1.0442798e+09 3.6575138e+03 7.1840629e+05 2.1777475e+05 0.0000000e+00
126 1.0809212e+09 3.7844492e+03 7.1263885e+05 2.1474623e+05 0.0000000e+00
127 1.1157528e+09 3.9053382e+03 7.0738804e+05 2.1031923e+05 0.0000000e+00
128 1.1474774e+09 4.0155831e+03 7.0240354e+05 2.0440900e+05 0.0000000e+00
129 1.1748383e+09 4.1108585e+03 6.9754224e+05 1.9696902e+05 0.0000000e+00
130 1.1976078e+09 4.1903935e+03 6.9271998e+05 1.8829235e+05 0.0000000e+00
131 1.2152157e+09 4.2519171e+03 6.8771746e+05 1.7861803e+05 0.0000000e+00
132 1.2265052e+09 4.2914568e+03 6.8231616e+05 1.6811362e+05 0.0000000e+00
133 1.2310203e+09 4.3075930e+03 6.7641153e+05 1.5815297e+05 0.0000000e+00
134 1.2292233e+09 4.3020371e+03 6.6986329e+05 1.5278440e+05 0.0000000e+00
135 1.2219274e+09 4.2777316e+03 6.6274878e+05 1.5091095e+05 0.0000000e+00
136 1.2110119e+09 4.2411653e+03 6.5520763e+05 1.5203321e+05 0.0000000e+00
137 1.1996989e+09 4.2041625e+03 6.4768107e+05 1.5502912e+05 0.0000000e+00
138 1.1815506e+09 4.1426545e+03 6.3964164e+05 1.5878578e+05 0.0000000e+00
139 1.1552142e+09 4.0528553e+03 6.3080355e+05 1.6291934e+05 0.0000000e+00
140 1.1213570e+09 3.9371503e+03 6.2128360e+05 1.6677151e+05 0.0000000e+00
141 1.0803757e+09 3.7968735e+03 6.1109566e+05 1.7003116e+05 0.0000000e+00
142 1.0332575e+09 3.6355242e+03 6.0037305e+05 1.7255369e+05 0.0000000e+00
143 9.8115279e+08 3.4571077e+03 5.8927588e+05 1.7428158e+05 0.0000000e+00
144 9.2555955e+08 3.2670136e+03 5.7791232e+05 1.7512343e+05 0.0000000e+00
145 8.8464200e+08 3.1303754e+03 5.6662611e+05 1.7514835e+05 0.0000000e+00
146 8.6878514e+08 3.0765154e+03 5.5663454e+05 1.7455616e+05 0.0000000e+00
147 8.5879578e+08 3.0407755e+03 5.4818794e+05 1.7344443e+05 0.0000000e+00
148 8.4849020e+08 3.0038181e+03 5.4079020e+05 1.7215885e+05 0.0000000e+00
149 8.3710887e+08 2.9630538e+03 5.3422484e+05 1.7034958e+05 0.0000000e+00
150 8.2942577e+08 2.9350576e+03 5.2857664e+05 1.6801962e+05 0.0000000e+00
151 8.2946608e+08 2.9338009e+03 5.2382609e+05 1.6528310e+05 0.0000000e+00
152 8.3673897e+08 2.9576961e+03 5.2001433e+05 1.6266981e+05 0.0000000e+00
153 8.5092913e+08 3.0062712e+03 5.1730405e+05 1.5977230e+05 0.0000000e+00
154 8.7070920e+08 3.0745273e+03 5.1575032e+05 1.5623195e+05 0.0000000e+00
155 8.9380927e+08 3.1544943e+03 5.1512639e+05 1.5224467e+05 0.0000000e+00
156 9.1837384e+08 3.2396336e+03 5.1519335e+05 1.4863023e+05 0.0000000e+00
157 9.4369623e+08 3.3275897e+03 5.1579584e+05 1.4473616e+05 0.0000000e+00
158 9.6864088e+08 3.4143408e+03 5.1672883e+05 1.4035892e+05 0.0000000e+00
159 9.9249995e+08 3.4973847e+03 5.1768609e+05 1.3549906e+05 0.0000000e+00
160 1.0147053e+09 3.5746473e+03 5.1841375e+05 1.3041006e+05 0.0000000e+00
161 1.0350153e+09 3.6455351e+03 5.1872741e+05 1.2606475e+05 0.0000000e+00
162 1.0527656e+09 3.7077590e+03 5.1850903e+05 1.2334975e+05 0.0000000e+00
163 1.0670221e+09 3.7580369e+03 5.1772607e+05 1.2228716e+05 0.0000000e+00
164 1.0773349e+09 3.7948289e+03 5.1634010e+05 1.2324445e+05 0.0000000e+00
165 1.0835520e+09 3.8175882e+03 5.1445232e+05 1.2659070e+05 0.0000000e+00
166 1.0855172e+09 3.8257307e+03 5.1215171e+05 1.3086516e+05 0.0000000e+00
167 1.0833452e+09 3.8196505e+03 5.0953640e+05 1.3494416e+05 0.0000000e+00
168 1.0772778e+09 3.8001712e+03 5.0665981e+05 1.3885002e+05 0.0000000e+00
169 1.0675832e+09 3.7681876e+03 5.0358256e+05 1.4270949e+05 0.0000000e+00
170 1.0545422e+09 3.7247127e+03 5.0034341e+05 1.4624865e+05 0.0000000e+00
171 1.0387472e+09 3.6717377e+03 4.9697944e+05 1.4935137e+05 0.0000000e+00
172 1.0209250e+09 3.6117903e+03 4.9355639e+05 1.5180671e+05 0.0000000e+00
173 1.0026215e+09 3.5504165e+03 4.9013645e+05 1.5363641e+05 0.0000000e+00
174 9.9074511e+08 3.5123594e+03 4.8694964e+05 1.5491522e+05 0.0000000e+00
175 9.9479569e+08 3.5282428e+03 4.8456346e+05 1.5590861e+05 0.0000000e+00
176 1.0002675e+09 3.5482584e+03 4.8313893e+05 1.5656027e+05 0.0000000e+00
177 1.0044019e+09 3.5634355e+03 4.8206638e+05 1.5708835e+05 0.0000000e+00
178 1.0069870e+09 3.5732249e+03 4.8129762e+05 1.5732194e+05 0.0000000e+00
179 1.0095658e+09 3.5829638e+03 4.8114474e+05 1.5708983e+05 0.0000000e+00
180 1.0200162e+09 3.6202324e+03 4.8146326e+05 1.5657287e+05 0.0000000e+00
181 1.0372866e+09 3.6807149e+03 4.8195484e+05 1.5561362e+05 0.0000000e+00
182 1.0557240e+09 3.7455864e+03 4.8247366e+05 1.5410182e+05 0.0000000e+00
183 1.0747767e+09 3.8124386e+03 4.8298241e+05 1.5191394e+05 0.0000000e+00
184 1.0930389e+09 3.8764531e+03 4.8333634e+05 1.4894080e+05 0.0000000e+00
185 1.1097407e+09 3.9353415e+03 4.8340554e+05 1.4520558e+05 0.0000000e+00
186 1.1241623e+09 3.9865105e+03 4.8311530e+05 1.4079006e+05 0.0000000e+00
187 1.1356761e+09 4.0276621e+03 4.8236611e+05 1.3573057e+05 0.0000000e+00
188 1.1440962e+09 4.0581368e+03 4.8110807e+05 1.3016194e+05 0.0000000e+00
189 1.1488562e+09 4.0760533e+03 4.7928530e+05 1.2426205e+05 0.0000000e+00
190 1.1496727e+09 4.0803244e+03 4.7685340e+05 1.1971104e+05 0.0000000e+00
191 1.1463830e+09 4.0704199e+03 4.7379197e+05 1.1683806e+05 0.0000000e+00
192 1.1390098e+09 4.0463492e+03 4.7016271e+05 1.1526764e+05 0.0000000e+00
193 1.1276923e+09 4.0085808e+03 4.6602823e+05 1.1513161e+05 0.0000000e+00
194 1.1127428e+09 3.9582014e+03 4.6143610e+05 1.1604024e+05 0.0000000e+00
195 1.0946276e+09 3.8968089e+03 4.5647245e+05 1.1767854e+05 0.0000000e+00
196 1.0746323e+09 3.8290961e+03 4.5121811e+05 1.1972669e+05 0.0000000e+00
197 1.0559987e+09 3.7664259e+03 4.4578441e+05 1.2172263e+05 0.0000000e+00
198 1.0436928e+09 3.7257751e+03 4.4035305e+05 1.2357692e+05 0.0000000e+00
199 1.0369542e+09 3.7047757e+03 4.3525553e+05 1.2532658e+05 0.0000000e+00
200 1.0368613e+09 3.7064462e+03 4.3097087e+05 1.2701631e+05 0.0000000e+00
201 1.0393728e+09 3.7168321e+03 4.2753621e+05 1.2860783e+05 0.0000000e+00
202 1.0426145e+09 3.7296257e+03 4.2468026e+05 1.3004709e+05 0.0000000e+00
203 1.0461128e+09 3.7431878e+03 4.2220827e+05 1.3130663e+05 0.0000000e+00
204 1.0502085e+09 3.7587104e+03 4.2002924e+05 1.3229039e+05 0.0000000e+00
205 1.0541227e+09 3.7735141e+03 4.1809480e+05 1.3302661e+05 0.0000000e+00
206 1.0578984e+09 3.7878907e+03 4.1640316e+05 1.3342349e+05 0.0000000e+00
207 1.0613293e+09 3.8010802e+03 4.1497080e+05 1.3347194e+05 0.0000000e+00
208 1.0645447e+09 3.8135829e+03 4.1378822e+05 1.3319627e+05 0.0000000e+00
209 1.0674319e+09 3.8250206e+03 4.1279517e+05 1.3267651e+05 0.0000000e+00
210 1.0700551e+09 3.8356399e+03 4.1202418e+05 1.3165262e+05 0.0000000e+00
211 1.0725107e+09 3.8458088e+03 4.1147424e+05 1.3005230e+05 0.0000000e+00
212 1.0748756e+09 3.8561104e+03 4.1112797e+05 1.2786046e+05 0.0000000e+00
213 1.0770958e+09 3.8662697e+03 4.1106502e+05 1.2507553e+05 0.0000000e+00
214 1.0794290e+09 3.8769390e+03 4.1120820e+05 1.2175360e+05 0.0000000e+00
215 1.0825760e+09 3.8911552e+03 4.1138172e+05 1.1795701e+05 0.0000000e+00
216 1.0869274e+09 3.9091373e+03 4.1148794e+05 1.1368053e+05 0.0000000e+00
217 1.0912776e+09 3.9271774e+03 4.1143088e+05 1.0906226e+05 0.0000000e+00
218 1.0947423e+09 3.9422653e+03 4.1117728e+05 1.0426146e+05 0.0000000e+00
219 1.0971048e+09 3.9536120e+03 4.1067461e+05 9.9756326e+04 0.0000000e+00
220 1.0984281e+09 3.9614324e+03 4.0990571e+05 9.7750556e+04 0.0000000e+00
221 1.0994805e+09 3.9683495e+03 4.0888604e+05 9.8762896e+04 0.0000000e+00
222 1.1015535e+09 3.9785676e+03 4.0764963e+05 1.0132287e+05 0.0000000e+00
223 1.1050911e+09 3.9941302e+03 4.0624270e+05 1.0431303e+05 0.0000000e+00
224 1.1088399e+09 4.0106232e+03 4.0474766e+05 1.0769519e+05 0.0000000e+00
225 1.1125999e+09 4.0271386e+03 4.0329336e+05 1.1148806e+05 0.0000000e+00
226 1.1162232e+09 4.0430902e+03 4.0195826e+05 1.1551154e+05 0.0000000e+00
227 1.1196913e+09 4.0584350e+03 4.0070087e+05 1.1950750e+05 0.0000000e+00
228 1.1228808e+09 4.0727566e+03 3.9947611e+05 1.2336295e+05 0.0000000e+00
229 1.1257747e+09 4.0859200e+03 3.9825745e+05 1.2700511e+05 0.0000000e+00
230 1.1281825e+09 4.0972948e+03 3.9704276e+05 1.3036619e+05 0.0000000e+00
231 1.1301258e+09 4.1069586e+03 3.9581152e+05 1.3335541e+05 0.0000000e+00
232 1.1315363e+09 4.1146432e+03 3.9455112e+05 1.3588317e+05 0.0000000e+00
233 1.1322208e+09 4.1197002e+03 3.9323152e+05 1.3793320e+05 0.0000000e+00
234 1.1322819e+09 4.1224922e+03 3.9187840e+05 1.3940474e+05 0.0000000e+00
235 1.1315493e+09 4.1224309e+03 3.9045744e+05 1.4024713e+05 0.0000000e+00
236 1.1303728e+09 4.1204989e+03 3.8893759e+05 1.4050940e+05 0.0000000e+00
237 1.1298256e+09 4.1202396e+03 3.8732995e+05 1.4018597e+05 0.0000000e+00
238 1.1292206e+09 4.1203038e+03 3.8565644e+05 1.3927718e+05 0.0000000e+00
239 1.1282071e+09 4.1190272e+03 3.8391780e+05 1.3780752e+05 0.0000000e+00
240 1.1265508e+09 4.1155045e+03 3.8211207e+05 1.3580741e+05 0.0000000e+00
241 1.1242964e+09 4.1098111e+03 3.8024368e+05 1.3338126e+05 0.0000000e+00
242 1.1214065e+09 4.1018325e+03 3.7835954e+05 1.3065954e+05 0.0000000e+00
243 1.1179647e+09 4.0918204e+03 3.7645684e+05 1.2756493e+05 0.0000000e+00
244 1.1141283e+09 4.0803861e+03 3.7454686e+05 1.2394308e+05 0.0000000e+00
245 1.1099477e+09 4.0676085e+03 3.7263995e+05 1.1988272e+05 0.0000000e+00
246 1.1054579e+09 4.0536961e+03 3.7073035e+05 1.1542461e+05 0.0000000e+00
247 1.1006995e+09 4.0388031e+03 3.6879842e+05 1.1067843e+05 0.0000000e+00
248 1.0956579e+09 4.0229819e+03 3.6683080e+05 1.0572229e+05 0.0000000e+00
249 1.0903676e+09 4.0063800e+03 3.6481060e+05 1.0119375e+05 0.0000000e+00
250 1.0848411e+09 3.9889096e+03 3.6272308e+05 9.7705851e+04 0.0000000e+00
251 1.0791383e+09 3.9708015e+03 3.6056147e+05 9.5464497e+04 0.0000000e+00
252 1.0731370e+09 3.9516898e+03 3.5833827e+05 9.4361876e+04 0.0000000e+00
253 1.0668392e+09 3.9315780e+03 3.5604882e+05 9.4608251e+04 0.0000000e+00
254 1.0602617e+09 3.9105055e+03 3.5368451e+05 9.5181009e+04 0.0000000e+00
255 1.0534170e+09 3.8885082e+03 3.5122297e+05 9.5949495e+04 0.0000000e+00
256 1.0462632e+09 3.8654096e+03 3.4864713e+05 9.6823437e+04 0.0000000e+00
257 1.0388687e+09 3.8413596e+03 3.4594985e+05 9.7778817e+04 0.0000000e+00
258 1.0313832e+09 3.8168963e+03 3.4311107e+05 9.8757774e+04 0.0000000e+00
259 1.0243513e+09 3.7936555e+03 3.4015192e+05 9.9891648e+04 0.0000000e+00
260 1.0178103e+09 3.7715682e+03 3.3707105e+05 1.0101260e+05 0.0000000e+00
261 1.0111563e+09 3.7492221e+03 3.3386218e+05 1.0200882e+05 0.0000000e+00
262 1.0041948e+09 3.7257323e+03 3.3053990e+05 1.0285603e+05 0.0000000e+00
263 9.9687354e+08 3.7007715e+03 3.2711264e+05 1.0355189e+05 0.0000000e+00
264 9.8912395e+08 3.6740267e+03 3.2359072e+05 1.0408269e+05 0.0000000e+00
265 9.8088269e+08 3.6453575e+03 3.1999211e+05 1.0439550e+05 0.0000000e+00
266 9.7220359e+08 3.6150032e+03 3.1634400e+05 1.0444638e+05 0.0000000e+00
267 9.6310848e+08 3.5830871e+03 3.1268637e+05 1.0421415e+05 0.0000000e+00
268 9.5360913e+08 3.5497864e+03 3.0903753e+05 1.0371268e+05 0.0000000e+00
269 9.4362472e+08 3.5147395e+03 3.0539824e+05 1.0291362e+05 0.0000000e+00
270 9.3334250e+08 3.4786505e+03 3.0179551e+05 1.0178917e+05 0.0000000e+00
271 9.2279611e+08 3.4415679e+03 2.9823880e+05 1.0031185e+05 0.0000000e+00
